num crossings	time (s)	maj axis (mm)	min axis (mm)	theta (rad )	slope (V/s)
2125	2819.268373	79.097186	22.174216	-0.564216	17.339478
2127	2821.340552	79.158076	22.212139	-0.560842	16.776765
2131	2825.490839	78.623183	22.249500	-0.554902	16.133990
2133	2827.563108	78.673484	22.295504	-0.551986	15.514656
2135	2829.635661	78.409505	22.362812	-0.549679	14.419394
2139	2833.776471	78.201661	22.433241	-0.532963	14.542332
2141	2835.848672	78.072884	22.459292	-0.527088	15.400943
2145	2839.997697	77.676848	22.450131	-0.529546	15.359085
2147	2842.073677	77.474133	22.490492	-0.527822	14.705950
2151	2846.218378	77.434811	22.612878	-0.520589	13.702683
2153	2848.289719	77.334334	22.619855	-0.514642	14.149988
2157	2852.433244	76.909527	22.606738	-0.503887	13.522572
2159	2854.505795	76.892138	22.639453	-0.500504	14.516687
2161	2856.578116	76.727017	22.666191	-0.497758	14.475233
2163	2858.651914	76.479930	22.683893	-0.495633	13.826468
2165	2860.725245	76.370452	22.707855	-0.492598	14.709573
2167	2862.798946	76.156425	22.740481	-0.489200	13.494239
2171	2866.949299	75.750591	22.813812	-0.477920	13.135896
2173	2869.023991	75.735534	22.839832	-0.470945	13.783752
2175	2871.096124	75.926137	22.866986	-0.468360	14.056337
2177	2873.166893	75.820899	22.910900	-0.469055	14.130230
2181	2877.307694	75.311912	23.017424	-0.468070	13.273496
2183	2879.380966	75.176583	23.024003	-0.464494	13.088592
2185	2881.454820	74.991375	23.046309	-0.459894	12.781419
2189	2885.605706	74.660365	23.093470	-0.448308	12.655215
2191	2887.680004	74.591402	23.128155	-0.443490	12.566925
2195	2891.826104	74.340011	23.144097	-0.437365	12.626169
2197	2893.899499	74.273696	23.184362	-0.435513	12.994279
2199	2895.972201	74.184890	23.204950	-0.432867	12.992021
2201	2898.045181	74.014016	23.233183	-0.430718	12.568226
2203	2900.117641	73.888100	23.271260	-0.428962	12.421098
2205	2902.189497	73.863927	23.319214	-0.426400	12.076816
2207	2904.259830	73.797267	23.350305	-0.421306	12.049383
2211	2908.401806	73.457837	23.423406	-0.406568	12.564853
2213	2910.474143	73.258818	23.450361	-0.402236	12.695462
2217	2914.623309	73.014309	23.490677	-0.400926	12.656713
2219	2916.698921	72.897815	23.511291	-0.399445	12.438219
2223	2920.847470	72.663078	23.592248	-0.391982	11.913016
2225	2922.920015	72.588827	23.642766	-0.389112	11.581364
2227	2924.991518	72.482889	23.687013	-0.385246	11.183886
2231	2929.134769	72.273525	23.726275	-0.376935	11.116006
2233	2931.207306	72.090406	23.750362	-0.372911	10.821771
2237	2935.353874	71.863579	23.816040	-0.365326	11.160265
2239	2937.427889	71.680567	23.841777	-0.361491	10.820002
2243	2941.576264	71.399067	23.913454	-0.350604	10.930339
2245	2943.650221	71.346729	23.929757	-0.345488	11.652619
2249	2947.794839	71.337005	23.972798	-0.338996	11.276466
2251	2949.865568	71.187989	24.008907	-0.337806	11.921056
2255	2954.007561	70.776421	24.101083	-0.334273	11.693450
2259	2958.152330	70.488786	24.140347	-0.328084	10.935839
2261	2960.225752	70.410709	24.161186	-0.323227	10.905213
2263	2962.299973	70.185518	24.178009	-0.319205	10.288453
2267	2966.449930	69.894750	24.236380	-0.309883	10.008203
2269	2968.523841	69.832290	24.281424	-0.305549	10.213653
2273	2972.670925	69.605092	24.332585	-0.298864	10.045382
2275	2974.744287	69.499045	24.366071	-0.296239	10.216665
2277	2976.816434	69.555193	24.392014	-0.293242	9.877471
2279	2978.888551	69.401351	24.413586	-0.290471	9.936339
2283	2983.031048	69.244495	24.453055	-0.281404	9.737414
2285	2985.102036	69.109662	24.484393	-0.275083	10.093162
2289	2989.246109	68.728151	24.541439	-0.263877	10.053802
2291	2991.319426	68.612894	24.560464	-0.261009	10.080734
2293	2993.392736	68.436421	24.578431	-0.258853	10.364655
2297	2997.541352	68.243770	24.583817	-0.254469	10.656616
2299	2999.617158	68.229443	24.578776	-0.251445	10.524050
2303	3003.765179	67.939150	24.600111	-0.242999	10.187228
2305	3005.838653	67.872204	24.621408	-0.238787	9.899340
2307	3007.912150	67.771581	24.638512	-0.234961	9.708852
2311	3012.057269	67.512891	24.659691	-0.226558	9.659387
2313	3014.130844	67.386580	24.668500	-0.222641	9.735874
2317	3018.277108	67.139665	24.672925	-0.213929	9.887895
2319	3020.350087	66.893299	24.685890	-0.210133	9.000025
2321	3022.422544	66.824436	24.697526	-0.205577	9.331517
2323	3024.495759	66.707640	24.730623	-0.201391	9.494465
2327	3028.639895	66.392698	24.757772	-0.193920	9.399998
2329	3030.711589	66.371795	24.771375	-0.190774	9.737847
2331	3032.782803	66.355014	24.811508	-0.188606	9.555827
2333	3034.853632	66.107499	24.821979	-0.185383	9.568971
2335	3036.925525	65.961001	24.843177	-0.182499	9.435411
2337	3038.997025	65.876442	24.883626	-0.178877	9.440108
2339	3041.069496	65.748821	24.875533	-0.175059	9.146249
2343	3045.215708	65.548440	24.869782	-0.167664	8.757741
2345	3047.289422	65.439083	24.844309	-0.163869	8.514440
2349	3051.438469	65.136962	24.831015	-0.155402	8.469264
2351	3053.512522	65.009343	24.811610	-0.151108	8.466397
2355	3057.660259	64.834282	24.836865	-0.143328	8.092748
2357	3059.733250	64.752436	24.848911	-0.140168	8.035194
2361	3063.878579	64.589460	24.875208	-0.134009	8.053841
2363	3065.950587	64.437766	24.890993	-0.130338	7.975690
2367	3070.093780	64.262113	24.908510	-0.121056	8.024792
2369	3072.163546	64.184885	24.941550	-0.115709	8.402939
2373	3076.308471	63.796149	24.979947	-0.105794	8.405022
2375	3078.381924	63.614624	25.017589	-0.102229	8.618135
2377	3080.454578	63.423434	25.031720	-0.099049	8.471356
2379	3082.527946	63.276642	25.056962	-0.096502	8.483014
2381	3084.602208	63.188073	25.045435	-0.093706	8.693465
2385	3088.749700	62.991480	24.989244	-0.087017	8.447461
2387	3090.824276	62.915206	24.955825	-0.083682	8.692491
2389	3092.897886	62.797436	24.945592	-0.079406	8.885964
2391	3094.971275	62.743638	24.951258	-0.074984	8.598937
2393	3097.045350	62.656952	24.947151	-0.071188	9.118421
2395	3099.119136	62.601784	24.957064	-0.066846	8.359770
2397	3101.191926	62.512686	24.946583	-0.063071	8.769637
2401	3105.337180	62.283000	24.961963	-0.054825	8.616313
2403	3107.410804	62.123768	24.966632	-0.050485	8.539421
2407	3111.555808	61.932184	24.966738	-0.043048	8.252572
2409	3113.628402	61.813312	24.983314	-0.039523	8.481797
2413	3117.772212	61.510832	25.008591	-0.032105	8.375954
2415	3119.844378	61.433164	25.029940	-0.028582	8.405327
2417	3121.916248	61.277815	25.048067	-0.025339	8.275055
2419	3123.988065	61.173419	25.073634	-0.022013	8.035929
2421	3126.059622	61.069525	25.077600	-0.018900	7.839509
